frequency,raw
20.00,-0.53
20.20,-0.48
20.40,-0.42
20.61,-0.36
20.81,-0.28
21.02,-0.20
21.23,-0.12
21.44,-0.03
21.66,0.05
21.87,0.14
22.09,0.20
22.31,0.27
22.54,0.32
22.76,0.35
22.99,0.40
23.22,0.44
23.45,0.49
23.69,0.53
23.92,0.59
24.16,0.65
24.40,0.71
24.65,0.76
24.89,0.83
25.14,0.89
25.39,0.94
25.65,1.01
25.91,1.06
26.16,1.11
26.43,1.16
26.69,1.21
26.96,1.26
27.23,1.31
27.50,1.35
27.77,1.39
28.05,1.43
28.33,1.47
28.62,1.52
28.90,1.56
29.19,1.60
29.48,1.66
29.78,1.69
30.08,1.74
30.38,1.78
30.68,1.82
30.99,1.85
31.30,1.89
31.61,1.93
31.93,1.97
32.24,2.01
32.57,2.06
32.89,2.09
33.22,2.13
33.55,2.17
33.89,2.21
34.23,2.24
34.57,2.25
34.92,2.30
35.27,2.31
35.62,2.34
35.97,2.37
36.33,2.40
36.70,2.43
37.06,2.46
37.43,2.49
37.81,2.53
38.19,2.55
38.57,2.57
38.95,2.61
39.34,2.62
39.74,2.66
40.14,2.68
40.54,2.73
40.94,2.77
41.35,2.80
41.76,2.84
42.18,2.85
42.60,2.89
43.03,2.91
43.46,2.92
43.90,2.96
44.33,2.97
44.78,2.98
45.23,3.01
45.68,3.03
46.13,3.03
46.60,3.03
47.06,3.06
47.53,3.09
48.01,3.09
48.49,3.11
48.97,3.15
49.46,3.17
49.96,3.20
50.46,3.23
50.96,3.26
51.47,3.28
51.99,3.30
52.51,3.34
53.03,3.34
53.56,3.36
54.10,3.38
54.64,3.40
55.18,3.41
55.74,3.43
56.29,3.46
56.86,3.47
57.42,3.51
58.00,3.52
58.58,3.52
59.16,3.52
59.76,3.54
60.35,3.56
60.96,3.58
61.57,3.58
62.18,3.58
62.80,3.61
63.43,3.64
64.07,3.64
64.71,3.66
65.35,3.69
66.01,3.70
66.67,3.70
67.33,3.70
68.01,3.70
68.69,3.70
69.37,3.70
70.07,3.71
70.77,3.73
71.48,3.75
72.19,3.76
72.91,3.76
73.64,3.76
74.38,3.77
75.12,3.79
75.87,3.82
76.63,3.82
77.40,3.82
78.17,3.82
78.95,3.82
79.74,3.82
80.54,3.84
81.35,3.85
82.16,3.85
82.98,3.89
83.81,3.89
84.65,3.89
85.50,3.89
86.35,3.89
87.22,3.89
88.09,3.89
88.97,3.89
89.86,3.89
90.76,3.89
91.66,3.89
92.58,3.89
93.51,3.91
94.44,3.92
95.39,3.92
96.34,3.92
97.30,3.92
98.28,3.90
99.26,3.89
100.25,3.90
101.25,3.89
102.27,3.92
103.29,3.92
104.32,3.92
105.37,3.92
106.42,3.92
107.48,3.92
108.56,3.92
109.64,3.92
110.74,3.92
111.85,3.92
112.97,3.92
114.10,3.89
115.24,3.89
116.39,3.89
117.55,3.89
118.73,3.89
119.92,3.89
121.12,3.89
122.33,3.89
123.55,3.89
124.79,3.89
126.03,3.89
127.29,3.89
128.57,3.89
129.85,3.89
131.15,3.87
132.46,3.85
133.79,3.85
135.12,3.84
136.48,3.82
137.84,3.82
139.22,3.82
140.61,3.82
142.02,3.79
143.44,3.76
144.87,3.76
146.32,3.76
147.78,3.76
149.26,3.74
150.75,3.71
152.26,3.70
153.78,3.70
155.32,3.70
156.88,3.70
158.44,3.66
160.03,3.64
161.63,3.64
163.24,3.64
164.88,3.64
166.53,3.63
168.19,3.60
169.87,3.58
171.57,3.58
173.29,3.58
175.02,3.56
176.77,3.52
178.54,3.52
180.32,3.52
182.13,3.49
183.95,3.46
185.79,3.46
187.65,3.46
189.52,3.42
191.42,3.40
193.33,3.40
195.27,3.37
197.22,3.34
199.19,3.34
201.18,3.32
203.19,3.29
205.23,3.28
207.28,3.27
209.35,3.24
211.44,3.22
213.56,3.21
215.69,3.18
217.85,3.16
220.03,3.15
222.23,3.12
224.45,3.09
226.70,3.09
228.96,3.05
231.25,3.03
233.57,3.03
235.90,2.99
238.26,2.97
240.64,2.95
243.05,2.93
245.48,2.91
247.93,2.88
250.41,2.85
252.92,2.82
255.45,2.80
258.00,2.78
260.58,2.73
263.19,2.72
265.82,2.69
268.48,2.67
271.16,2.65
273.87,2.61
276.61,2.59
279.38,2.56
282.17,2.55
284.99,2.52
287.84,2.49
290.72,2.47
293.63,2.43
296.57,2.42
299.53,2.38
302.53,2.37
305.55,2.33
308.61,2.30
311.69,2.27
314.81,2.24
317.96,2.20
321.14,2.18
324.35,2.13
327.59,2.11
330.87,2.06
334.18,2.05
337.52,2.00
340.90,1.98
344.30,1.95
347.75,1.94
351.23,1.89
354.74,1.87
358.28,1.83
361.87,1.80
365.49,1.77
369.14,1.74
372.83,1.71
376.56,1.69
380.33,1.64
384.13,1.61
387.97,1.58
391.85,1.54
395.77,1.51
399.73,1.50
403.72,1.45
407.76,1.43
411.84,1.40
415.96,1.38
420.12,1.34
424.32,1.32
428.56,1.29
432.85,1.26
437.18,1.23
441.55,1.19
445.96,1.16
450.42,1.13
454.93,1.09
459.48,1.07
464.07,1.03
468.71,1.00
473.40,0.97
478.13,0.93
482.91,0.91
487.74,0.87
492.62,0.84
497.55,0.81
502.52,0.77
507.55,0.74
512.62,0.71
517.75,0.67
522.93,0.64
528.16,0.60
533.44,0.58
538.77,0.55
544.16,0.53
549.60,0.49
555.10,0.47
560.65,0.42
566.25,0.41
571.92,0.37
577.64,0.34
583.41,0.31
589.25,0.29
595.14,0.25
601.09,0.24
607.10,0.20
613.17,0.18
619.30,0.15
625.50,0.14
631.75,0.10
638.07,0.08
644.45,0.05
650.89,0.02
657.40,-0.00
663.98,-0.01
670.62,-0.04
677.32,-0.07
684.10,-0.08
690.94,-0.11
697.85,-0.12
704.83,-0.16
711.87,-0.16
718.99,-0.18
726.18,-0.20
733.44,-0.22
740.78,-0.24
748.19,-0.25
755.67,-0.25
763.23,-0.25
770.86,-0.28
778.57,-0.28
786.35,-0.28
794.22,-0.28
802.16,-0.28
810.18,-0.30
818.28,-0.31
826.46,-0.31
834.73,-0.31
843.08,-0.31
851.51,-0.28
860.02,-0.28
868.62,-0.28
877.31,-0.28
886.08,-0.28
894.94,-0.28
903.89,-0.28
912.93,-0.28
922.06,-0.26
931.28,-0.25
940.59,-0.24
950.00,-0.20
959.50,-0.19
969.09,-0.14
978.78,-0.10
988.57,-0.05
998.46,-0.01
1008.44,0.05
1018.53,0.13
1028.71,0.20
1039.00,0.29
1049.39,0.37
1059.88,0.46
1070.48,0.56
1081.19,0.67
1092.00,0.77
1102.92,0.88
1113.95,0.99
1125.09,1.10
1136.34,1.22
1147.70,1.34
1159.18,1.44
1170.77,1.56
1182.48,1.67
1194.30,1.79
1206.25,1.89
1218.31,2.01
1230.49,2.11
1242.80,2.22
1255.22,2.32
1267.78,2.41
1280.45,2.50
1293.26,2.60
1306.19,2.67
1319.25,2.77
1332.45,2.86
1345.77,2.94
1359.23,3.01
1372.82,3.12
1386.55,3.19
1400.41,3.26
1414.42,3.34
1428.56,3.42
1442.85,3.50
1457.28,3.57
1471.85,3.63
1486.57,3.70
1501.43,3.77
1516.45,3.83
1531.61,3.91
1546.93,3.97
1562.40,4.03
1578.02,4.09
1593.80,4.15
1609.74,4.21
1625.84,4.29
1642.10,4.34
1658.52,4.41
1675.10,4.47
1691.85,4.54
1708.77,4.61
1725.86,4.69
1743.12,4.76
1760.55,4.84
1778.15,4.91
1795.94,5.00
1813.90,5.07
1832.03,5.14
1850.36,5.24
1868.86,5.32
1887.55,5.42
1906.42,5.51
1925.49,5.61
1944.74,5.69
1964.19,5.80
1983.83,5.91
2003.67,6.03
2023.71,6.13
2043.94,6.26
2064.38,6.38
2085.03,6.51
2105.88,6.65
2126.94,6.77
2148.20,6.93
2169.69,7.08
2191.38,7.24
2213.30,7.40
2235.43,7.56
2257.78,7.73
2280.36,7.90
2303.17,8.06
2326.20,8.23
2349.46,8.38
2372.95,8.55
2396.68,8.72
2420.65,8.86
2444.86,9.01
2469.31,9.18
2494.00,9.31
2518.94,9.47
2544.13,9.60
2569.57,9.74
2595.27,9.88
2621.22,10.00
2647.43,10.12
2673.90,10.23
2700.64,10.33
2727.65,10.43
2754.93,10.53
2782.48,10.60
2810.30,10.67
2838.40,10.74
2866.79,10.79
2895.46,10.83
2924.41,10.86
2953.65,10.88
2983.19,10.88
3013.02,10.88
3043.15,10.88
3073.58,10.86
3104.32,10.82
3135.36,10.79
3166.72,10.74
3198.38,10.67
3230.37,10.61
3262.67,10.55
3295.30,10.47
3328.25,10.40
3361.53,10.30
3395.15,10.20
3429.10,10.13
3463.39,10.02
3498.03,9.91
3533.01,9.81
3568.34,9.70
3604.02,9.59
3640.06,9.49
3676.46,9.38
3713.22,9.27
3750.36,9.15
3787.86,9.05
3825.74,8.94
3864.00,8.84
3902.64,8.72
3941.66,8.62
3981.08,8.52
4020.89,8.42
4061.10,8.31
4101.71,8.24
4142.73,8.14
4184.15,8.04
4226.00,7.97
4268.26,7.88
4310.94,7.80
4354.05,7.73
4397.59,7.67
4441.56,7.60
4485.98,7.55
4530.84,7.51
4576.15,7.47
4621.91,7.42
4668.13,7.40
4714.81,7.35
4761.96,7.35
4809.58,7.32
4857.67,7.29
4906.25,7.29
4955.31,7.29
5004.87,7.26
5054.91,7.24
5105.46,7.23
5156.52,7.23
5208.08,7.23
5260.16,7.23
5312.77,7.23
5365.89,7.23
5419.55,7.23
5473.75,7.23
5528.49,7.23
5583.77,7.26
5639.61,7.27
5696.00,7.29
5752.96,7.29
5810.49,7.29
5868.60,7.28
5927.28,7.25
5986.56,7.23
6046.42,7.23
6106.89,7.19
6167.96,7.17
6229.64,7.12
6291.93,7.07
6354.85,7.02
6418.40,6.95
6482.58,6.88
6547.41,6.80
6612.88,6.73
6679.01,6.64
6745.80,6.56
6813.26,6.46
6881.39,6.39
6950.21,6.29
7019.71,6.19
7089.91,6.09
7160.81,6.01
7232.41,5.93
7304.74,5.85
7377.79,5.79
7451.56,5.71
7526.08,5.65
7601.34,5.60
7677.35,5.57
7754.13,5.53
7831.67,5.53
7909.98,5.53
7989.08,5.53
8068.98,5.54
8149.67,5.59
8231.16,5.63
8313.47,5.71
8396.61,5.80
8480.57,5.90
8565.38,6.01
8651.03,6.14
8737.54,6.29
8824.92,6.42
8913.17,6.57
9002.30,6.73
9092.32,6.86
9183.25,6.96
9275.08,7.03
9367.83,7.05
9461.51,6.98
9556.12,6.82
9651.68,6.65
9748.20,6.35
9845.68,5.98
9944.14,5.54
10043.58,5.04
10144.02,4.49
10245.46,3.91
10347.91,3.32
10451.39,2.71
10555.91,2.05
10661.46,1.44
10768.08,0.84
10875.76,0.26
10984.52,-0.34
11094.36,-0.91
11205.31,-1.46
11317.36,-1.97
11430.53,-2.47
11544.84,-2.95
11660.29,-3.38
11776.89,-3.82
11894.66,-4.22
12013.60,-4.62
12133.74,-4.99
12255.08,-5.33
12377.63,-5.67
12501.41,-5.98
12626.42,-6.25
12752.68,-6.51
12880.21,-6.75
13009.01,-6.95
13139.10,-7.16
13270.49,-7.30
13403.20,-7.45
13537.23,-7.55
13672.60,-7.64
13809.33,-7.69
13947.42,-7.73
14086.90,-7.70
14227.77,-7.65
14370.04,-7.59
14513.74,-7.48
14658.88,-7.32
14805.47,-7.11
14953.52,-6.87
15103.06,-6.58
15254.09,-6.25
15406.63,-5.84
15560.70,-5.39
15716.30,-4.87
15873.47,-4.34
16032.20,-3.76
16192.52,-3.17
16354.45,-2.61
16517.99,-2.11
16683.17,-1.74
16850.01,-1.49
17018.51,-1.48
17188.69,-1.74
17360.58,-2.15
17534.18,-2.78
17709.53,-3.56
17886.62,-4.40
18065.49,-5.34
18246.14,-6.26
18428.60,-7.13
18612.89,-7.90
18799.02,-8.57
18987.01,-9.18
19176.88,-9.55
19368.65,-9.81
19562.33,-9.95
19757.96,-10.09
19955.54,-10.22
