* Measurement data measured by REW V5.19
* Source: PulseAudio Mixer, no input selected, L, volume: no control
* Format: 512k Log Swept Sine, 1 sweep at -12.0 dBFS  With no timing reference
* Dated: Feb 23, 2022 11:45:23 PM
* REW Settings:
*  C-weighting compensation: Off
*  Target level: 75.0 dB
* Note: 
* Measurement: KZ ATR R
* Smoothing: None
* Frequency Step: 1/48 octave
* Start Frequency: 20.000 Hz
*
* Freq(Hz)	SPL(dB)	Phase(degrees)
20.000000	59.139	-119.0022
20.299999	59.231	-119.5331
20.600000	59.326	-120.1083
20.900000	59.420	-120.7291
21.200001	59.511	-121.3795
21.400000	59.570	-121.8175
21.799999	59.683	-122.6783
22.000000	59.739	-123.0940
22.400000	59.849	-123.8946
22.700001	59.932	-124.4737
23.000000	60.016	-125.0401
23.299999	60.098	-125.5951
23.600000	60.180	-126.1360
24.000000	60.285	-126.8263
24.299999	60.364	-127.3188
24.700001	60.468	-127.9495
25.000000	60.546	-128.4158
25.400000	60.649	-129.0455
25.799999	60.747	-129.6931
26.200001	60.838	-130.3524
26.500000	60.901	-130.8462
26.900000	60.975	-131.4928
27.200001	61.025	-131.9641
27.600000	61.089	-132.5697
28.000000	61.152	-133.1497
28.500000	61.232	-133.8551
29.000000	61.318	-134.5797
29.500000	61.402	-135.3512
30.000000	61.479	-136.1414
30.400000	61.538	-136.7475
30.700001	61.583	-137.1761
31.100000	61.645	-137.7235
31.500000	61.711	-138.2730
32.000000	61.794	-138.9924
32.500000	61.868	-139.7257
33.000000	61.933	-140.4172
33.500000	61.997	-141.0518
34.000000	62.056	-141.6660
34.500000	62.121	-142.2900
35.000000	62.181	-142.9148
35.500000	62.236	-143.5189
36.000000	62.290	-144.1032
36.500000	62.344	-144.6851
37.000000	62.398	-145.2746
37.500000	62.449	-145.8699
38.200001	62.512	-146.7061
38.700001	62.555	-147.2984
39.500000	62.621	-148.2183
40.000000	62.662	-148.7816
40.599998	62.712	-149.4652
41.200001	62.756	-150.1503
41.799999	62.797	-150.8106
42.500000	62.844	-151.5513
43.099998	62.883	-152.1904
43.700001	62.919	-152.8304
44.400002	62.957	-153.5461
45.000000	62.992	-154.1506
45.500000	63.021	-154.6710
46.200001	63.055	-155.4064
46.799999	63.080	-156.0084
47.500000	63.109	-156.6877
48.200001	63.135	-157.3497
48.700001	63.153	-157.7881
49.400002	63.186	-158.3795
50.000000	63.220	-158.9422
50.799999	63.250	-159.7609
51.500000	63.263	-160.4114
52.200001	63.283	-161.0003
53.000000	63.311	-161.7131
53.799999	63.331	-162.4490
54.500000	63.345	-163.0617
55.200001	63.358	-163.6569
56.000000	63.373	-164.3210
57.000000	63.393	-165.1284
58.000000	63.407	-165.9616
59.000000	63.409	-166.7359
60.000000	63.416	-167.4507
60.799999	63.420	-168.0435
61.500000	63.422	-168.5453
62.200001	63.425	-169.0438
63.000000	63.422	-169.6091
64.000000	63.421	-170.2175
65.000000	63.432	-170.8659
66.000000	63.428	-171.4999
67.000000	63.442	-172.0312
68.000000	63.461	-172.7035
69.000000	63.469	-173.3291
70.000000	63.487	-173.9915
71.000000	63.488	-174.6675
72.000000	63.497	-175.2816
73.000000	63.496	-175.9973
74.000000	63.476	-176.5740
75.000000	63.473	-177.0974
76.199997	63.462	-177.7915
77.500000	63.445	-178.4933
78.800003	63.428	-179.1711
80.000000	63.414	-179.8018
81.199997	63.395	179.5984
82.500000	63.378	178.9601
83.800003	63.354	178.3172
85.000000	63.330	177.7551
86.199997	63.310	177.2245
87.500000	63.290	176.6159
88.500000	63.270	176.1663
90.000000	63.243	175.5211
91.199997	63.216	175.0255
92.500000	63.190	174.5230
93.800003	63.166	174.0036
95.000000	63.137	173.4924
96.199997	63.113	173.0432
97.500000	63.083	172.5015
98.800003	63.074	172.0276
100.000000	63.037	171.3741
101.500000	62.992	171.0172
103.000000	62.963	170.4590
104.400002	62.931	169.9841
106.000000	62.885	169.4014
107.500000	62.844	168.8529
109.000000	62.802	168.3126
110.599998	62.765	167.7449
112.000000	62.727	167.2776
113.800003	62.682	166.7157
115.000000	62.646	166.3466
117.199997	62.581	165.6095
118.000000	62.557	165.4007
120.599998	62.469	164.5792
122.000000	62.446	164.1814
124.099998	62.391	163.5933
125.000000	62.365	163.3430
126.500000	62.326	162.9409
128.000000	62.281	162.5232
131.500000	62.178	161.6385
132.000000	62.165	161.5176
134.000000	62.108	161.0083
136.000000	62.046	160.5202
138.000000	61.989	160.0518
140.000000	61.924	159.6057
143.000000	61.835	158.9598
145.000000	61.774	158.5536
147.500000	61.693	158.0550
150.000000	61.611	157.5532
152.500000	61.551	157.0553
155.000000	61.476	156.5728
157.500000	61.402	156.0874
160.000000	61.324	155.6130
162.500000	61.248	155.1982
165.000000	61.163	154.7912
167.500000	61.079	154.3946
170.000000	61.010	154.0037
172.500000	60.941	153.6969
175.000000	60.868	153.4233
177.500000	60.800	153.1695
180.000000	60.723	152.9459
182.500000	60.648	152.6996
185.000000	60.575	152.5083
187.500000	60.500	152.3304
190.000000	60.417	152.1610
192.500000	60.341	152.0690
195.000000	60.260	151.9675
197.500000	60.186	151.9587
200.000000	60.117	151.9677
203.000000	60.063	151.9955
206.000000	60.014	151.8699
209.000000	59.953	151.6742
212.000000	59.896	151.3724
214.000000	59.844	151.2393
218.000000	59.730	150.9589
220.000000	59.679	150.8787
224.000000	59.550	150.7517
227.000000	59.463	150.6489
230.000000	59.377	150.6042
233.000000	59.294	150.5884
236.000000	59.218	150.5612
240.000000	59.096	150.5317
243.000000	59.021	150.5191
247.000000	58.913	150.5222
250.000000	58.849	150.7113
254.000000	58.728	150.5933
258.000000	58.637	150.6717
262.000000	58.556	150.7651
265.000000	58.500	150.8758
269.000000	58.436	151.0147
272.000000	58.394	151.1121
276.000000	58.343	151.2218
280.000000	58.291	151.2857
285.000000	58.249	151.4070
290.000000	58.213	151.3380
295.000000	58.202	151.2282
300.000000	58.168	150.8351
304.000000	58.120	150.4279
307.000000	58.074	150.1713
311.000000	57.997	149.8823
315.000000	57.919	149.5643
320.000000	57.819	149.2832
325.000000	57.713	149.0770
330.000000	57.607	148.8993
335.000000	57.501	148.7276
340.000000	57.395	148.6492
345.000000	57.294	148.5660
350.000000	57.193	148.4733
355.000000	57.102	148.5301
360.000000	57.005	148.4944
365.000000	56.906	148.5260
370.000000	56.807	148.5588
375.000000	56.719	148.4933
382.000000	56.599	148.6135
387.000000	56.516	148.6678
395.000000	56.377	148.7204
400.000000	56.293	148.7767
406.000000	56.216	149.0595
412.000000	56.109	149.2009
418.000000	56.027	149.5436
425.000000	55.920	149.9528
431.000000	55.834	150.2805
437.000000	55.744	150.6475
444.000000	55.646	151.0331
450.000000	55.551	151.4346
455.000000	55.486	151.7779
462.000000	55.389	152.2122
468.000000	55.309	152.6375
475.000000	55.224	153.1081
482.000000	55.127	153.6769
487.000000	55.075	154.0584
494.000000	54.979	154.5341
500.000000	54.911	155.0576
508.000000	54.819	155.6556
515.000000	54.736	156.1884
522.000000	54.662	156.7365
530.000000	54.570	157.3860
538.000000	54.475	158.0702
545.000000	54.402	158.5576
552.000000	54.332	159.2942
560.000000	54.248	159.8774
570.000000	54.141	160.8340
580.000000	54.044	161.6967
590.000000	53.962	162.4229
600.000000	53.840	163.0873
608.000000	53.772	163.5037
615.000000	53.714	163.9869
622.000000	53.664	164.4257
630.000000	53.593	164.9160
640.000000	53.513	165.4022
650.000000	53.437	166.0754
660.000000	53.357	166.7247
670.000000	53.293	167.3251
680.000000	53.212	168.0620
690.000000	53.140	168.6494
700.000000	53.071	169.4249
710.000000	53.007	170.1268
720.000000	52.962	170.9565
730.000000	52.906	171.6864
740.000000	52.850	172.4488
750.000000	52.808	173.1243
762.000000	52.780	173.9654
775.000000	52.742	174.8801
788.000000	52.683	175.6775
800.000000	52.639	176.5105
812.000000	52.582	177.1851
825.000000	52.508	178.1739
838.000000	52.421	179.1653
850.000000	52.297	-179.5433
862.000000	52.136	-177.3367
875.000000	52.534	-172.7846
885.000000	52.968	-174.1482
900.000000	52.951	-175.4512
912.000000	52.917	-175.4152
925.000000	52.880	-174.9469
938.000000	52.868	-174.4980
950.000000	52.862	-173.9741
962.000000	52.836	-173.5123
975.000000	52.806	-172.8157
988.000000	52.822	-171.6357
1000.000000	52.880	-170.3633
1015.000000	52.948	-169.2524
1030.000000	53.037	-168.0040
1044.000000	53.107	-167.0526
1060.000000	53.171	-165.9042
1075.000000	53.242	-164.8664
1090.000000	53.293	-163.9308
1106.000000	53.341	-162.8347
1120.000000	53.382	-162.1512
1138.000000	53.438	-161.0347
1150.000000	53.473	-160.4062
1172.000000	53.532	-159.2778
1180.000000	53.563	-158.6992
1206.000000	53.635	-157.3371
1220.000000	53.699	-156.6092
1241.000000	53.851	-155.5100
1250.000000	53.909	-154.9899
1265.000000	54.002	-154.2656
1280.000000	54.109	-153.4897
1315.000000	54.311	-151.7999
1320.000000	54.353	-151.5325
1340.000000	54.478	-150.5140
1360.000000	54.634	-149.5147
1380.000000	54.767	-148.4782
1400.000000	54.914	-147.4047
1430.000000	55.103	-146.3863
1450.000000	55.220	-146.0863
1475.000000	55.391	-145.5931
1500.000000	55.556	-145.2072
1525.000000	55.732	-144.9141
1550.000000	55.854	-144.4547
1575.000000	55.978	-144.0686
1600.000000	56.105	-143.7738
1625.000000	56.229	-143.4749
1650.000000	56.370	-143.0989
1675.000000	56.498	-142.7972
1700.000000	56.634	-142.5400
1725.000000	56.776	-142.2890
1750.000000	56.917	-141.9986
1775.000000	57.056	-141.7857
1800.000000	57.203	-141.6492
1825.000000	57.349	-141.5429
1850.000000	57.502	-141.3501
1875.000000	57.643	-141.1971
1900.000000	57.811	-141.2603
1925.000000	57.976	-141.1839
1950.000000	58.143	-141.1771
1975.000000	58.310	-141.1555
2000.000000	58.486	-141.2742
2030.000000	58.685	-141.3748
2060.000000	58.903	-141.6458
2090.000000	59.112	-141.8637
2120.000000	59.335	-142.1583
2140.000000	59.491	-142.4332
2180.000000	59.788	-143.0611
2200.000000	59.942	-143.3657
2240.000000	60.249	-144.1913
2270.000000	60.481	-144.9368
2300.000000	60.722	-145.6888
2330.000000	60.955	-146.4992
2360.000000	61.159	-147.4315
2400.000000	61.485	-147.9223
2430.000000	61.712	-147.9500
2470.000000	62.009	-148.1185
2500.000000	62.226	-148.4430
2540.000000	62.499	-148.8622
2580.000000	62.759	-149.3748
2620.000000	63.000	-150.0282
2650.000000	63.169	-150.6434
2690.000000	63.380	-151.4526
2720.000000	63.520	-152.0858
2760.000000	63.681	-152.9861
2800.000000	63.827	-153.9490
2850.000000	63.966	-155.1140
2900.000000	64.065	-156.2839
2950.000000	64.133	-157.3482
3000.000000	64.175	-158.3071
3040.000000	64.186	-158.9181
3070.000000	64.192	-159.3658
3110.000000	64.189	-159.8235
3150.000000	64.178	-160.2054
3200.000000	64.153	-160.5267
3250.000000	64.131	-160.6827
3300.000000	64.099	-160.7193
3350.000000	64.085	-160.6028
3400.000000	64.091	-160.3543
3450.000000	64.065	-161.0688
3500.000000	64.079	-162.4912
3550.000000	64.102	-163.8845
3600.000000	64.147	-165.2057
3650.000000	64.213	-166.6074
3700.000000	64.285	-168.0043
3750.000000	64.383	-169.4397
3820.000000	64.542	-171.7140
3870.000000	64.684	-173.4998
3950.000000	64.942	-176.7346
4000.000000	65.108	-179.0205
4060.000000	65.323	177.7930
4120.000000	65.518	174.1998
4180.000000	65.689	170.0878
4250.000000	65.822	164.7032
4310.000000	65.869	159.5800
4370.000000	65.813	154.1871
4440.000000	65.609	147.6067
4500.000000	65.311	142.0239
4550.000000	64.973	137.5735
4620.000000	64.388	131.7840
4680.000000	63.800	127.4038
4750.000000	63.053	122.9314
4820.000000	62.265	119.3348
4870.000000	61.683	117.1671
4940.000000	60.874	114.7066
5000.000000	60.197	113.1361
5080.000000	59.307	111.6027
5150.000000	58.581	110.6638
5220.000000	57.869	110.1165
5300.000000	57.091	109.8969
5380.000000	56.385	109.9020
5450.000000	55.811	110.1279
5520.000000	55.256	110.5985
5600.000000	54.651	111.2885
5700.000000	53.913	112.2467
5800.000000	53.302	116.1127
5900.000000	52.698	121.0778
6000.000000	52.157	126.1547
6080.000000	51.758	130.5186
6150.000000	51.364	134.4597
6220.000000	51.076	138.5305
6300.000000	50.743	143.1966
6400.000000	50.373	149.3651
6500.000000	50.070	155.8921
6600.000000	49.938	162.1765
6700.000000	49.751	167.8536
6800.000000	49.551	174.1071
6900.000000	49.486	-179.6459
7000.000000	49.419	-173.5299
7100.000000	49.447	-166.9158
7200.000000	49.461	-160.8019
7300.000000	49.582	-154.2959
7400.000000	49.761	-147.9324
7500.000000	50.037	-141.6858
7620.000000	50.429	-134.2984
7750.000000	50.953	-126.6765
7880.000000	51.671	-118.9583
8000.000000	52.503	-112.7518
8120.000000	53.579	-107.1152
8250.000000	55.107	-103.0526
8380.000000	56.885	-106.0442
8500.000000	58.964	-114.4867
8620.000000	60.856	-132.2243
8750.000000	60.944	-160.9840
8850.000000	59.255	-179.2350
9000.000000	56.014	166.7310
9120.000000	53.671	162.5472
9250.000000	51.491	161.4956
9380.000000	49.705	162.5964
9500.000000	48.268	164.0602
9620.000000	47.081	166.7430
9750.000000	45.910	169.8083
9880.000000	44.953	173.1346
10000.000000	44.129	176.2925
10150.000000	43.279	-179.3073
10300.000000	42.544	-175.2313
10440.000000	41.951	-171.0173
10600.000000	41.378	-166.2051
10750.000000	40.946	-161.8759
10900.000000	40.760	-157.3331
11060.000000	40.489	-153.8470
11200.000000	40.399	-149.2574
11380.000000	40.526	-145.3526
11500.000000	40.627	-142.2653
11720.000000	41.079	-138.4113
11800.000000	41.351	-136.8450
12060.000000	42.582	-134.6687
12200.000000	43.310	-135.3667
12410.000000	45.061	-141.2740
12500.000000	45.783	-146.1639
12650.000000	46.664	-158.9364
12800.000000	46.738	-175.9102
13150.000000	42.945	155.5163
13200.000000	42.255	153.4850
13400.000000	39.786	150.8945
13600.000000	37.300	150.4048
13800.000000	35.777	155.8809
14000.000000	34.467	165.3472
14300.000000	32.310	-173.1567
14500.000000	31.158	-161.7914
14750.000000	30.824	-145.4002
15000.000000	30.443	-131.7858
15250.000000	29.018	-118.1981
15500.000000	27.273	-103.7931
15750.000000	25.596	-81.3724
16000.000000	22.808	-54.4623
16250.000000	23.972	-11.8812
16500.000000	25.500	12.6921
16750.000000	28.399	41.5494
17000.000000	32.245	55.5174
17250.000000	35.958	46.1220
17500.000000	35.865	31.4054
17750.000000	33.792	30.3003
18000.000000	32.289	37.0330
18250.000000	31.106	52.8095
18500.000000	30.773	69.8071
18750.000000	30.902	78.4939
19000.000000	31.333	90.4698
19250.000000	31.555	97.0681
19500.000000	32.080	96.5400
19750.000000	31.447	91.2397
